Temperature	Mean Data
19.95	0.043222582778939866
19.96	0.043222582778939866
19.970000000000002	0.043222582778939866
19.980000000000004	0.043222582778939866
19.990000000000006	0.043222582778939866
20.000000000000007	0.043222582778939866
20.01000000000001	0.043222582778939866
20.02000000000001	0.043222582778939866
20.030000000000012	0.043222582778939866
20.040000000000013	0.043222582778939866
20.050000000000015	0.043222582778939866
20.060000000000016	0.04322258277894209
20.070000000000018	0.04447089148065815
20.08000000000002	0.045813181070276834
20.09000000000002	0.047259166910347046
20.100000000000023	0.04881767614072653
20.110000000000024	0.05049645400110251
20.120000000000026	0.05230199479499811
20.130000000000027	0.05423940159501926
20.14000000000003	0.05631227792748628
20.15000000000003	0.05852265373212792
20.160000000000032	0.06087094690221015
20.170000000000034	0.06335596070939276
20.180000000000035	0.06597491644420238
20.190000000000037	0.06872351969407835
20.20000000000004	0.0715960578662986
20.21000000000004	0.07458552586226727
20.22000000000004	0.07768377623161866
20.230000000000043	0.08088168968025035
20.240000000000045	0.08341898596653323
20.250000000000046	0.08595628225282
20.260000000000048	0.0893358903085986
20.27000000000005	0.0927782441992789
20.28000000000005	0.09627269605749683
20.290000000000052	0.09980868136049575
20.300000000000054	0.10337590277581621
20.310000000000056	0.10696450284072384
20.320000000000057	0.11056522228395664
20.33000000000006	0.11416954126376995
20.34000000000006	0.11776980127695214
20.350000000000062	0.1204128568600975
20.360000000000063	0.12305591244324869
20.370000000000065	0.12660764200116872
20.380000000000067	0.13013852360124398
20.390000000000068	0.13364557184905543
20.40000000000007	0.1371268928694744
20.41000000000007	0.1405816656153105
20.420000000000073	0.1440101018567874
20.430000000000074	0.14741338608622848
20.440000000000076	0.15079359696549058
20.450000000000077	0.15415361230029886
20.46000000000008	0.1574969998316425
20.47000000000008	0.16082789638071654
20.480000000000082	0.1641508780671622
20.490000000000084	0.16747082444304903
20.500000000000085	0.17079277945271848
20.510000000000087	0.17322421731597398
20.52000000000009	0.17565565517923765
20.53000000000009	0.17900450140090743
20.54000000000009	0.18237183217167668
20.550000000000093	0.18576178263780072
20.560000000000095	0.18917799404214225
20.570000000000096	0.19262351971591324
20.580000000000098	0.19610074666554966
20.5900000000001	0.19961133451797458
20.6000000000001	0.20315617316063947
20.610000000000102	0.20673535991964143
20.620000000000104	0.21034819658090584
20.630000000000106	0.21399320600298408
20.640000000000107	0.21668225747212613
20.65000000000011	0.21937130894127949
20.66000000000011	0.22308549654615517
20.670000000000112	0.22582202575735652
20.680000000000113	0.22855855496856958
20.690000000000115	0.232322188523461
20.700000000000117	0.2360981980270338
20.710000000000118	0.23988163471497104
20.72000000000012	0.2436673612720872
20.73000000000012	0.24745016074394938
20.740000000000123	0.2512248456406245
20.750000000000124	0.25498636485324233
20.760000000000126	0.2577423774333548
20.770000000000127	0.2604983900134796
20.78000000000013	0.2642172297497378
20.79000000000013	0.2669426328426825
20.800000000000132	0.26966803593563937
20.810000000000134	0.27332431721462686
20.820000000000135	0.2769464967820997
20.830000000000137	0.2805324800899145
20.84000000000014	0.28408083176775456
20.85000000000014	0.27636388194969813
20.86000000000014	0.28933333205995837
20.870000000000143	0.292771952884378
20.880000000000145	0.2961735743832649
20.890000000000146	0.2995399340965467
20.900000000000148	0.30287334179041414
20.91000000000015	0.3061766220963486
20.92000000000015	0.3094530489506734
20.930000000000152	0.3127062739220843
20.940000000000154	0.31594025059021325
20.950000000000156	0.31915915711697124
20.960000000000157	0.32236731904091304
20.97000000000016	0.325569134134943
20.98000000000016	0.32876900091461214
20.990000000000162	0.33197125208596323
21.000000000000163	0.3351800938956277
21.010000000000165	0.3383995520088504
21.020000000000167	0.3416334242109514
21.030000000000168	0.3448852399247428
21.04000000000017	0.34815822628035215
21.05000000000017	0.35145528027961065
21.060000000000173	0.3547789464703712
21.070000000000174	0.3453522274683513
21.080000000000176	0.35976847892018154
21.090000000000177	0.36317831621572516
21.10000000000018	0.36662108405620086
21.11000000000018	0.3700974042436193
21.120000000000182	0.3736074928284073
21.130000000000184	0.3771511637721626
21.140000000000185	0.38072783509894254
21.150000000000187	0.38342328123087305
21.16000000000019	0.38611872736282143
21.17000000000019	0.3897630114409274
21.18000000000019	0.3934360717132042
21.190000000000193	0.39713578715453524
21.200000000000195	0.4120668224252704
21.210000000000196	0.41570524838872336
21.220000000000198	0.41870428703820345
21.2300000000002	0.4217033256876967
21.2400000000002	0.4253624862540513
21.250000000000203	0.4277518779110217
21.260000000000204	0.43148295548111404
21.270000000000206	0.43514682375431696
21.280000000000207	0.43880684450429724
21.29000000000021	0.4424603154639443
21.30000000000021	0.44610467150545724
21.310000000000212	0.44973750318577704
21.320000000000213	0.45335657774894855
21.330000000000215	0.4569598619187718
21.340000000000217	0.4605455456089523
21.350000000000218	0.4641120655164805
21.36000000000022	0.46701204271688995
21.37000000000022	0.46991201991730297
21.380000000000223	0.4729727062732849
21.390000000000224	0.475488286920786
21.400000000000226	0.47800386756830865
21.410000000000228	0.48147129496909635
21.42000000000023	0.48491662961441234
21.43000000000023	0.4883402839244
21.440000000000232	0.4917429840316301
21.450000000000234	0.4951257521963224
21.460000000000235	0.498489883081831
21.470000000000237	0.5018369147452014
21.48000000000024	0.505168595380374
21.49000000000024	0.50848684696386
21.50000000000024	0.5117937269976515
21.510000000000243	0.515091389529694
21.520000000000245	0.5183820465666205
21.530000000000246	0.5216679308848002
21.540000000000248	0.5249512611024802
21.55000000000025	0.5282342097084006
21.56000000000025	0.5315188745635283
21.570000000000253	0.5348072542145087
21.580000000000254	0.5375304527392167
21.590000000000256	0.5402536512639399
21.600000000000257	0.5435636080101011
21.61000000000026	0.5463148534462712
21.62000000000026	0.5490660988824567
21.630000000000262	0.5524103228315173
21.640000000000263	0.5557684105316375
21.650000000000265	0.5591412510316713
21.660000000000267	0.562529541813978
21.670000000000268	0.5659337921080336
21.68000000000027	0.5693543279062855
21.69000000000027	0.5727912982457817
21.700000000000273	0.5762446823721192
21.710000000000274	0.5797142974760441
21.720000000000276	0.5831998067810402
21.730000000000278	0.5867007278526933
21.74000000000028	0.5902164410880694
21.75000000000028	0.5941865561078701
21.760000000000282	0.5960089250436192
21.770000000000284	0.5995505895725542
21.780000000000285	0.6031047426656866
21.790000000000287	0.6066703549171407
21.80000000000029	0.6102462952934451
21.81000000000029	0.6145322022522619
21.82000000000029	0.6160915790676069
21.830000000000293	0.6196853751396856
21.840000000000295	0.6232860003643851
21.850000000000296	0.6268920100062597
21.860000000000298	0.6315038556784434
21.8700000000003	0.6327705139708805
21.8800000000003	0.6363853683779709
21.890000000000303	0.6400012571196245
21.900000000000304	0.6436166002105076
21.910000000000306	0.6472298405202338
21.920000000000307	0.650839462106897
21.93000000000031	0.6544440074861416
21.94000000000031	0.6580420936009482
21.950000000000312	0.6616324263052566
21.960000000000313	0.6652138132052959
21.970000000000315	0.6687851747180724
21.980000000000317	0.6723455532121505
21.990000000000318	0.6758941201003215
22.00000000000032	0.6795148090534802
22.01000000000032	0.6817314780010378
22.020000000000323	0.6852546366193774
22.030000000000324	0.6887637858171837
22.040000000000326	0.6922586156674053
22.050000000000328	0.6957389545922473
22.06000000000033	0.6992047641075219
22.07000000000033	0.7026561317934791
22.080000000000332	0.7055132549314557
22.090000000000334	0.7083703780694507
22.100000000000335	0.7117806486336865
22.110000000000337	0.7151783576106837
22.12000000000034	0.7185640695573432
22.13000000000034	0.7224624383940685
22.14000000000034	0.7244419186135733
22.150000000000343	0.7264213988331254
22.160000000000345	0.7297717199783051
22.170000000000346	0.7331129287546225
22.180000000000348	0.7364458116619301
22.19000000000035	0.7397711821063182
22.20000000000035	0.7430898811955207
22.210000000000353	0.7464027797725615
22.220000000000354	0.7497107812213472
22.230000000000356	0.7530148245121632
22.240000000000357	0.7563158869195183
22.25000000000036	0.7596149858431402
22.26000000000036	0.7629131791984387
22.270000000000362	0.7662115639159619
22.280000000000364	0.7695112721984111
22.290000000000365	0.7728134653231259
22.300000000000367	0.7761193249385645
22.310000000000368	0.7794300419730709
22.32000000000037	0.782746803438849
22.33000000000037	0.7860707775597148
22.340000000000373	0.789403097763639
22.350000000000374	0.792744846147875
22.360000000000376	0.7960970370368354
22.370000000000378	0.7994606012110184
22.38000000000038	0.8028363712986112
22.39000000000038	0.8062250687068571
22.400000000000382	0.8096272923475911
22.410000000000384	0.8130435092974485
22.420000000000385	0.8172791860468904
22.430000000000387	0.8191523954209116
22.44000000000039	0.8210256047949942
22.45000000000039	0.8244860284862627
22.46000000000039	0.8279606905028961
22.470000000000393	0.8314493048347988
22.480000000000395	0.834951442189948
22.490000000000396	0.8384665336023652
22.500000000000398	0.8419938753644672
22.5100000000004	0.8455326352370337
22.5200000000004	0.8490818599130296
22.530000000000403	0.8514137233915452
22.540000000000404	0.8537455868701107
22.550000000000406	0.8573111255778728
22.560000000000407	0.8615474973777404
22.57000000000041	0.8631896298395592
22.58000000000041	0.8667709556567201
22.590000000000412	0.8703560555962236
22.600000000000414	0.8739434983589386
22.610000000000415	0.8775318220155717
22.620000000000417	0.8811195497302403
22.63000000000042	0.884705206379778
22.64000000000042	0.8882873360452476
22.65000000000042	0.8918645203247085
22.660000000000423	0.8954353973706761
22.670000000000424	0.8989986814964646
22.680000000000426	0.9025531831291503
22.690000000000428	0.9060978288211704
22.70000000000043	0.9096316809735865
22.71000000000043	0.9131539568755548
22.720000000000432	0.9171852100797614
22.730000000000434	0.9189817386635746
22.740000000000435	0.9224784684179409
22.750000000000437	0.9253460779183819
22.76000000000044	0.9282136874188488
22.77000000000044	0.931674635914964
22.78000000000044	0.9351234643656553
22.790000000000443	0.9379465739152104
22.800000000000445	0.9407696834647918
22.810000000000446	0.9441864374767887
22.820000000000448	0.94759408508646
22.83000000000045	0.9509940321748607
22.84000000000045	0.954387887885735
22.850000000000453	0.9577774450589912
22.860000000000454	0.9611646557047971
22.870000000000456	0.9645516016422956
22.880000000000457	0.967940460577144
22.89000000000046	0.9713334680515249
22.90000000000046	0.9747328758608783
22.910000000000462	0.9781409076855435
22.920000000000464	0.9815597128273121
22.930000000000465	0.9849913190665484
22.940000000000467	0.987786496344801
22.95000000000047	0.9905816736230544
22.96000000000047	0.9933926764209247
22.97000000000047	0.9962036792188272
22.980000000000473	0.9996969035201885
22.990000000000475	1.0032110825333318
23.000000000000476	1.0067467817584546
23.010000000000478	1.0103041761636333
23.02000000000048	1.0138830355228385
23.03000000000048	1.0167936263630295
23.040000000000482	1.019704217203255
23.050000000000484	1.0233352366129191
23.060000000000485	1.026984636821506
23.070000000000487	1.030650456376075
23.08000000000049	1.0343304075210402
23.09000000000049	1.038021922361518
23.10000000000049	1.0417222070666166
23.110000000000493	1.0454283031409988
23.120000000000495	1.0491371546268535
23.130000000000496	1.0528456799385577
23.140000000000498	1.055862537977631
23.1500000000005	1.0588793960167386
23.1600000000005	1.0625836561294453
23.170000000000503	1.0649867731985159
23.180000000000504	1.067389890267651
23.190000000000506	1.0710717171727553
23.200000000000507	1.0747388410735155
23.21000000000051	1.0783896432995714
23.22000000000051	1.0813796344430275
23.230000000000512	1.084369625586509
23.240000000000514	1.0878530818835637
23.250000000000515	1.0913365381805085
23.260000000000517	1.092679775044242
23.27000000000052	1.096255459332386
23.28000000000052	1.0998145182859786
23.29000000000052	1.1033588842014088
23.300000000000523	1.1068910315952651
23.310000000000525	1.1104139242111626
23.320000000000526	1.1139309471274415
23.330000000000528	1.1174458257033169
23.34000000000053	1.1209625335917524
23.35000000000053	1.1244851924546493
23.360000000000532	1.1280179663221048
23.370000000000534	1.1315649537310453
23.380000000000535	1.1338696906563304
23.390000000000537	1.1361744275816843
23.40000000000054	1.1397584189262218
23.41000000000054	1.1433679275130608
23.42000000000054	1.1470058066057445
23.430000000000543	1.1497329510210232
23.440000000000545	1.1524600954363142
23.450000000000546	1.1554092534590323
23.460000000000548	1.1577936764865466
23.47000000000055	1.1601780995141375
23.48000000000055	1.1639478688998004
23.490000000000553	1.1677521687426253
23.500000000000554	1.1720109307583588
23.510000000000556	1.174256983480515
23.520000000000557	1.1765030362027176
23.53000000000056	1.1795777922195712
23.54000000000056	1.1826525482364054
23.550000000000562	1.1853874431932103
23.560000000000564	1.1893444407469655
23.570000000000565	1.192555200264712
23.580000000000567	1.1957659597825028
23.59000000000057	1.1997589711100665
23.60000000000057	1.2025341034675368
23.61000000000057	1.2053092358249728
23.620000000000573	1.2074925926607678
23.630000000000575	1.2115177511266821
23.640000000000576	1.2155413743215318
23.650000000000578	1.2187674788006606
23.66000000000058	1.2219935832798345
23.67000000000058	1.225994892358682
23.680000000000582	1.2289321912306048
23.690000000000584	1.2318694901025273
23.700000000000585	1.2348067889745096
23.710000000000587	1.238759912834938
23.72000000000059	1.2422842053201848
23.73000000000059	1.2453284174592347
23.74000000000059	1.2492125847179907
23.750000000000593	1.252326023663249
23.760000000000595	1.2554394626085486
23.770000000000596	1.259250182246312
23.780000000000598	1.2630255181723837
23.7900000000006	1.2660668371933457
23.8000000000006	1.2691081562143471
23.810000000000603	1.2728025706812942
23.820000000000604	1.2764600407385776
23.830000000000606	1.2800810142864822
23.840000000000607	1.2836664272127738
23.85000000000061	1.2872176857251563
23.86000000000061	1.2905294791533017
23.870000000000612	1.2930372624374562
23.880000000000614	1.2965004953157437
23.890000000000615	1.2999385979547429
23.900000000000617	1.3033547575510902
23.91000000000062	1.3067523620184596
23.92000000000062	1.3101349373741191
23.93000000000062	1.3135060835178125
23.940000000000623	1.317272175039743
23.950000000000625	1.319038579744446
23.960000000000626	1.3223939863301641
23.970000000000628	1.3257512570872387
23.98000000000063	1.329113498716668
23.99000000000063	1.3324835723803963
24.000000000000632	1.3358640599972813
24.010000000000634	1.3392572387671808
24.020000000000636	1.3426650642902658
24.030000000000637	1.3460891623707099
24.04000000000064	1.3499822517473927
24.05000000000064	1.3517588860721392
24.06000000000064	1.3546589808116782
24.070000000000643	1.3575590755512559
24.080000000000645	1.3610589485984943
24.090000000000646	1.3645785661736562
24.100000000000648	1.368117807215234
24.11000000000065	1.37197906707508
24.12000000000065	1.373987363108582
24.130000000000653	1.3775779684002465
24.140000000000654	1.381186369637296
24.150000000000656	1.3848117941496525
24.160000000000657	1.3884534133919728
24.17000000000066	1.3910846800532155
24.18000000000066	1.3937159467144582
24.190000000000662	1.39634721337572
24.200000000000664	1.3992659417986981
24.210000000000665	1.4029542753313033
24.220000000000667	1.406654914023311
24.23000000000067	1.410367059913307
24.24000000000067	1.4140899472052597
24.25000000000067	1.4178228429838509
24.260000000000673	1.4215650455162325
24.270000000000675	1.4253158805973518
24.280000000000676	1.4279107871105823
24.290000000000678	1.4305056936237777
24.30000000000068	1.432584606208969
24.31000000000068	1.4363478932903893
24.320000000000682	1.440116569721443
24.330000000000684	1.443890055476102
24.340000000000686	1.4476677875476083
24.350000000000687	1.451449214736852
24.36000000000069	1.4559261465024993
24.37000000000069	1.457636396775701
24.380000000000692	1.4600528229580318
24.390000000000693	1.4624692491404112
24.400000000000695	1.465585005985339
24.410000000000696	1.4687007628303137
24.420000000000698	1.4724890572090021
24.4300000000007	1.4769641977871584
24.4400000000007	1.4786363107819966
24.450000000000703	1.4824180516336596
24.460000000000704	1.4862002363012845
24.470000000000706	1.4886158475251345
24.480000000000707	1.491031458749172
24.49000000000071	1.4960961390136436
24.50000000000071	1.4971354384125137
24.510000000000712	1.500289913939273
24.520000000000714	1.5034443894660305
24.530000000000715	1.5065768182339945
24.540000000000717	1.5097092470019047
24.55000000000072	1.512091690996938
24.56000000000072	1.5158821413160224
24.57000000000072	1.519671439368336
24.580000000000723	1.5235740370643287
24.590000000000725	1.525769391696735
24.600000000000726	1.5295574634207283
24.610000000000728	1.5333446093492111
24.62000000000073	1.5371305290336104
24.63000000000073	1.5409486627283646
24.640000000000732	1.5432464795518386
24.650000000000734	1.547036014681689
24.660000000000736	1.550823853194101
24.670000000000737	1.5550041674041375
24.68000000000074	1.5569713429747534
24.69000000000074	1.5621017879689532
24.700000000000742	1.5631386361223845
24.710000000000743	1.569242932084069
24.720000000000745	1.5693204141744512
24.730000000000746	1.5731107817966647
24.740000000000748	1.5635452944774053
24.75000000000075	1.5727828942696107
24.76000000000075	1.5820204940614044
24.770000000000753	1.5857648837682086
24.780000000000754	1.5888455127469587
24.790000000000756	1.591926141725756
24.800000000000757	1.5956251647514932
24.81000000000076	1.5980140194056676
24.82000000000076	1.6004028740599954
24.830000000000762	1.6048105820100413
24.840000000000764	1.6064246039901524
24.850000000000765	1.6100580147919443
24.860000000000767	1.613037957967465
24.87000000000077	1.6160179011431006
24.88000000000077	1.6204971142994185
24.89000000000077	1.6219218621317142
24.900000000000773	1.6274303739875071
24.910000000000775	1.6277769930389667
24.920000000000776	1.6313114644195277
24.930000000000778	1.6348325775209607
24.94000000000078	1.638342154691491
24.95000000000078	1.641842179848768
24.960000000000782	1.6453347523540334
24.970000000000784	1.648822036705792
24.980000000000786	1.6523062096185914
24.990000000000787	1.6557894062440872
25.00000000000079	1.6592736674221784
25.01000000000079	1.6627608898993305
25.020000000000792	1.6662527814047372
25.030000000000793	1.6697508223296333
25.040000000000795	1.6732562355194318
25.050000000000797	1.6767699653801
25.060000000000798	1.6802926671416403
25.0700000000008	1.6838247067344916
25.0800000000008	1.6873661713381247
25.090000000000803	1.6909168902687666
25.100000000000804	1.6944764654955815
25.110000000000806	1.697449591283758
25.120000000000807	1.7004227170720485
25.13000000000081	1.704810050466309
25.14000000000081	1.706378791323035
25.150000000000812	1.7087611832452196
25.160000000000814	1.711143575167502
25.170000000000815	1.7147262607087932
25.180000000000817	1.7192260459498279
25.19000000000082	1.7207381405348687
25.20000000000082	1.724335635569091
25.21000000000082	1.7279357663904138
25.220000000000823	1.7315387602588426
25.230000000000825	1.7351451401070017
25.240000000000826	1.7387557375544649
